#T(K)	P(Pa)
476.14,	8.33E+03
481.14,	9.81E+03
486.14,	1.15E+04
491.14,	1.34E+04
496.14,	1.56E+04
501.14,	1.81E+04
506.14,	2.09E+04
511.14,	2.40E+04
516.14,	2.75E+04
521.14,	3.15E+04
526.14,	3.58E+04
531.14,	4.07E+04
536.14,	4.60E+04
541.14,	5.19E+04
546.14,	5.85E+04
551.14,	6.56E+04
556.14,	7.35E+04
561.14,	8.20E+04
566.14,	9.14E+04
