#eThermo
#T(K), P(Pa), rhol(kg/m3), rhov(kg/m3)
237.15,	3.59E-02, 896.8666, 2.99e-6
242.15,	3.59E-02, 893.3479, 3.12e-6
247.15,	4.33E-02, 889.8215, 3.61e-6 
252.15,	5.17E-02, 886.2873, 4.51e-6
257.15,	1.88E-02, 883.1549, 5.69e-9
262.15,	7.91E-02, 879.1946, 6.91e-6
267.15,	1.10E-01, 875.6358, 9.20e-6
272.15,	1.54E-01, 872.0684, 1.27e-5
277.15,	2.29E-01, 868.4922, 1.86e-5
282.15,	3.51E-01, 864.9071, 2.82e-5
287.15,	5.53E-01, 861.3128, 4.40e-5
292.15,	8.87E-01, 857.709, 6.93e-5
297.15,	1.40E+00, 854.0957, 1.08e-4
302.15,	2.21E+00, 850.4725, 1.68e-4
307.15,	3.43E+00, 846.8391, 2.56e-4
312.15,	5.24E+00, 843.1955, 3.84e-4
317.15,	7.89E+00, 839.5412, 5.69e-4
322.15,	1.16E+01, 835.8760, 8.29e-4
327.15,	1.71E+01, 832.1997, 1.19e-3
332.15,	2.46E+01, 828.5119, 1.69e-3
337.15,	3.50E+01, 824.8124, 2.37e-3
342.15,	4.92E+01, 821.1008, 3.29e-3
347.15,	6.84E+01, 817.3768, 4.51e-3
352.15,	9.40E+01, 813.6401, 6.12e-3
357.15,	1.27E+02, 809.8903, 8.20e-3
362.15,	1.72E+02, 806.1270, 1.09e-2
367.15,	2.29E+02, 802.3500, 1.43e-2
372.15,	3.03E+02, 798.5587, 1.87e-2
377.15,	3.97E+02, 794.7528, 2.41e-2
382.15,	5.15E+02, 790.9319, 3.09e-2
387.15,	6.64E+02, 787.0955, 3.93e-2
392.15,	8.48E+02, 783.2431, 4.96e-2
397.15,	1.07E+03, 779.3743, 6.21e-2
402.15,	1.35E+03, 775.4886, 7.72e-2
407.15,	1.70E+03, 771.5854, 9.54e-2
412.15,	2.10E+03, 767.6642, 1.17e-1
417.15,	2.59E+03, 763.7245, 1.43e-1
422.15,	3.18E+03, 759.7655, 1.73e-1
427.15,	3.88E+03, 755.7868, 2.09e-1
432.15,	4.70E+03, 751.7876, 2.51e-1
437.15,	5.68E+03, 747.7673, 2.99e-1
442.15,	6.81E+03, 743.7251, 3.55e-1
447.15,	8.13E+03, 739.6604, 4.19e-1
452.15,	9.66E+03, 735.5722, 4.93e-1
457.15,	1.14E+04, 731.4599, 5.78e-1
462.15,	1.34E+04, 727.3224, 6.73e-1
467.15,	1.58E+04, 723.1590, 7.81e-1
